tau,r,phi,dt/dtau,dr/dtau,dphi/dtau
0.0,6.0,0.0,1.4142135623729999,0.0,0.09622504486472222
0.2503128911138924,5.999999999999996,0.024086369177652642,1.4142135623730006,-4.0259794113804926e-14,0.09622504486472237
0.5006257822277848,5.9999999999999805,0.04817273835530536,1.4142135623730023,-8.051760627814774e-14,0.09622504486472286
0.7509386733416772,5.999999999999957,0.0722591075329582,1.414213562373005,-1.2077552676653498e-13,0.09622504486472361
1.0012515644555695,5.999999999999878,0.0963454767106166,1.414213562373014,-1.6103038417465103e-13,0.09622504486472612
1.2515644555694618,5.999999999999719,0.12043184588828548,1.414213562373033,-2.012863901848783e-13,0.09622504486473125
1.5018773466833544,5.9999999999995595,0.1445182150659543,1.4142135623730518,-2.4154239619510557e-13,0.09622504486473638
1.7521902377972467,5.9999999999994,0.16860458424362312,1.4142135623730707,-2.8179840220533274e-13,0.09622504486474151
2.002503128911139,5.99999999999924,0.19269095342129197,1.4142135623730896,-3.2205440821556006e-13,0.09622504486474663
2.2528160200250316,5.99999999999908,0.21677732259896082,1.4142135623731085,-3.6231041422578733e-13,0.09622504486475177
2.5031289111389237,5.99999999999892,0.2408636917766296,1.4142135623731271,-4.0256642023601454e-13,0.09622504486475689
2.753441802252816,5.99999999999876,0.26495006095429846,1.414213562373146,-4.428224262462418e-13,0.09622504486476202
3.0037546933667088,5.9999999999986,0.2890364301319673,1.4142135623731649,-4.830784322564691e-13,0.09622504486476714
3.254067584480601,5.99999999999844,0.3131227993096361,1.4142135623731837,-5.233344382666963e-13,0.09622504486477228
3.5043804755944934,5.9999999999982805,0.337209168487305,1.4142135623732026,-5.635904442769235e-13,0.0962250448647774
3.7546933667083855,5.999999999998121,0.36129553766497374,1.4142135623732215,-6.038464502871507e-13,0.09622504486478252
4.005006257822278,5.999999999997944,0.3853819068426464,1.414213562373242,-6.441022214763302e-13,0.09622504486478818
4.25531914893617,5.9999999999976605,0.4094682760203429,1.4142135623732754,-6.843564905919631e-13,0.09622504486479726
4.505632040050063,5.999999999997378,0.4335546451980395,1.4142135623733088,-7.246107597075963e-13,0.09622504486480633
4.755944931163955,5.999999999997096,0.457641014375736,1.414213562373342,-7.648650288232292e-13,0.0962250448648154
5.006257822277847,5.999999999996812,0.48172738355343253,1.4142135623733754,-8.051192979388621e-13,0.09622504486482447
5.25657071339174,5.99999999999653,0.5058137527311292,1.4142135623734087,-8.453735670544953e-13,0.09622504486483355
5.506883604505632,5.999999999996247,0.5299001219088256,1.414213562373442,-8.856278361701283e-13,0.09622504486484261
5.7571964956195245,5.999999999995964,0.5539864910865222,1.4142135623734753,-9.258821052857613e-13,0.09622504486485169
6.0075093867334175,5.999999999995681,0.5780728602642188,1.4142135623735086,-9.661363744013944e-13,0.09622504486486076
6.25782227784731,5.999999999995398,0.6021592294419152,1.414213562373542,-1.0063906435170274e-12,0.09622504486486982
6.508135168961202,5.999999999995116,0.6262455986196118,1.4142135623735754,-1.0466449126326604e-12,0.0962250448648789
6.758448060075094,5.999999999994833,0.6503319677973083,1.4142135623736087,-1.0868991817482934e-12,0.09622504486488798
7.008760951188987,5.99999999999455,0.6744183369750049,1.414213562373642,-1.1271534508639264e-12,0.09622504486489704
7.259073842302879,5.999999999994152,0.6985047061527385,1.414213562373689,-1.167410956467974e-12,0.09622504486490979
7.509386733416771,5.999999999993746,0.7225910753304748,1.4142135623737369,-1.2076686993727952e-12,0.09622504486492281
7.759699624530664,5.99999999999334,0.7466774445082112,1.4142135623737846,-1.2479264422776168e-12,0.09622504486493583
8.010012515644556,5.9999999999929345,0.7707638136859475,1.4142135623738323,-1.2881841851824383e-12,0.09622504486494884
8.260325406758449,5.999999999992529,0.7948501828636838,1.4142135623738803,-1.3284419280872598e-12,0.09622504486496186
8.51063829787234,5.999999999992124,0.81893655204142,1.414213562373928,-1.3686996709920812e-12,0.09622504486497488
8.760951188986233,5.999999999991718,0.8430229212191563,1.414213562373976,-1.4089574138969027e-12,0.0962250448649879
9.011264080100126,5.999999999991312,0.8671092903968928,1.4142135623740237,-1.4492151568017242e-12,0.0962250448650009
9.261576971214017,5.999999999990906,0.8911956595746289,1.4142135623740715,-1.4894728997065455e-12,0.09622504486501392
9.51188986232791,5.9999999999905,0.9152820287523653,1.4142135623741194,-1.529730642611367e-12,0.09622504486502693
9.762202753441803,5.999999999990094,0.9393683979301016,1.4142135623741672,-1.5699883855161886e-12,0.09622504486503995
10.012515644555695,5.999999999989688,0.9634547671078378,1.414213562374215,-1.61024612842101e-12,0.09622504486505297
10.262828535669588,5.999999999989193,0.987541136285612,1.4142135623742733,-1.6505051360986034e-12,0.09622504486506887
10.51314142678348,5.999999999988663,1.0116275054634003,1.4142135623743357,-1.6907646158980192e-12,0.09622504486508583
10.763454317897372,5.999999999988135,1.0357138746411882,1.414213562374398,-1.7310240956974346e-12,0.09622504486510279
11.013767209011265,5.999999999987606,1.0598002438189764,1.4142135623744603,-1.7712835754968503e-12,0.09622504486511975
11.264080100125158,5.999999999987077,1.0838866129967646,1.4142135623745227,-1.8115430552962661e-12,0.09622504486513671
11.514392991239049,5.9999999999865485,1.1079729821745525,1.414213562374585,-1.8518025350956817e-12,0.09622504486515367
11.764705882352942,5.99999999998602,1.1320593513523407,1.4142135623746472,-1.8920620148950973e-12,0.09622504486517063
12.015018773466835,5.999999999985491,1.1561457205301289,1.4142135623747096,-1.9323214946945133e-12,0.0962250448651876
12.265331664580726,5.999999999984962,1.1802320897079168,1.414213562374772,-1.972580974493929e-12,0.09622504486520456
12.51564455569462,5.999999999984434,1.204318458885705,1.4142135623748342,-2.0128404542933444e-12,0.09622504486522152
12.76595744680851,5.999999999983904,1.228404828063493,1.4142135623748966,-2.05309993409276e-12,0.09622504486523847
13.016270337922403,5.999999999983376,1.252491197241281,1.414213562374959,-2.0933594138921756e-12,0.09622504486525543
13.266583229036296,5.999999999982095,1.2765775664194599,1.41421356237511,-2.1335976583048957e-12,0.09622504486529651
13.516896120150188,5.999999999981556,1.3006639355972531,1.4142135623751735,-2.1738568464261023e-12,0.0962250448653138
13.76720901126408,5.999999999981007,1.3247503047750517,1.414213562375238,-2.214115749892334e-12,0.09622504486533141
14.017521902377974,5.999999999980448,1.348836673952856,1.414213562375304,-2.25437436870359e-12,0.09622504486534936
14.267834793491865,5.999999999979878,1.372923043130665,1.414213562375371,-2.2946327028598698e-12,0.0962250448653676
14.518147684605758,5.999999999979299,1.3970094123084793,1.4142135623754395,-2.3348907523611745e-12,0.0962250448653862
14.76846057571965,5.9999999999787095,1.421095781486299,1.414213562375509,-2.3751485172075034e-12,0.0962250448654051
15.018773466833542,5.99999999997811,1.4451821506641238,1.4142135623755796,-2.4154059973988565e-12,0.09622504486542434
15.269086357947435,5.999999999977501,1.469268519841954,1.4142135623756515,-2.4556631929352345e-12,0.09622504486544389
15.519399249061328,5.999999999976881,1.4933548890197894,1.4142135623757246,-2.4959201038166366e-12,0.09622504486546377
15.76971214017522,5.999999999976251,1.5174412581976298,1.4142135623757988,-2.536176730043063e-12,0.09622504486548397
16.020025031289112,5.9999999999756115,1.5415276273754757,1.414213562375874,-2.576433071614514e-12,0.0962250448655045
16.270337922403005,5.999999999974961,1.5656139965533267,1.4142135623759509,-2.61668916410913e-12,0.09622504486552534
16.520650813516898,5.999999999974301,1.5897003657311837,1.4142135623760286,-2.6569455028538726e-12,0.0962250448655465
16.770963704630788,5.999999999973631,1.6137867349090462,1.4142135623761076,-2.697202246796693e-12,0.096225044865568
17.02127659574468,5.9999999999729505,1.6378731040869148,1.4142135623761878,-2.737459395937593e-12,0.09622504486558982
17.271589486858574,5.99999999997226,1.6619594732647895,1.414213562376269,-2.7777169502765706e-12,0.09622504486561197
17.521902377972467,5.99999999997156,1.68604584244267,1.4142135623763517,-2.8179749098136275e-12,0.09622504486563442
17.77221526908636,5.99999999997085,1.7101322116205566,1.4142135623764354,-2.8582332745487624e-12,0.09622504486565721
18.022528160200253,5.999999999970129,1.7342185807984491,1.4142135623765202,-2.8984920444819764e-12,0.09622504486568033
18.272841051314142,5.999999999969399,1.758304949976347,1.4142135623766063,-2.9387512196132683e-12,0.09622504486570375
18.523153942428035,5.999999999968658,1.7823913191542515,1.4142135623766936,-2.979010799942639e-12,0.09622504486572751
18.773466833541928,5.9999999999679074,1.8064776883321616,1.4142135623767822,-3.0192707854700886e-12,0.09622504486575159
19.02377972465582,5.999999999967146,1.830564057510078,1.414213562376872,-3.0595311761956167e-12,0.09622504486577599
19.274092615769714,5.999999999966375,1.854650426688,1.4142135623769627,-3.099791972119223e-12,0.09622504486580072
19.524405506883607,5.999999999965595,1.8787367958659278,1.4142135623770546,-3.1400531732409083e-12,0.09622504486582577
19.774718397997496,5.999999999964803,1.9028231650438614,1.414213562377148,-3.1803147795606714e-12,0.09622504486585114
20.02503128911139,5.999999999964002,1.9269095342218012,1.4142135623772423,-3.220576791078514e-12,0.09622504486587684
20.275344180225282,5.999999999963191,1.950995903399747,1.414213562377338,-3.260839207794435e-12,0.09622504486590286
20.525657071339175,5.9999999999623705,1.9750822725776989,1.4142135623774348,-3.3011020188458684e-12,0.0962250448659292
20.77596996245307,5.999999999961539,1.9991686417556576,1.4142135623775327,-3.341364767291867e-12,0.09622504486595587
21.02628285356696,5.999999999960698,2.0232550109336236,1.414213562377632,-3.3816272118393073e-12,0.09622504486598285
21.27659574468085,5.999999999959846,2.0473413801115963,1.4142135623777323,-3.4218893524881877e-12,0.09622504486601016
21.526908635794744,5.999999999958985,2.071427749289577,1.4142135623778338,-3.46215118923851e-12,0.0962250448660378
21.777221526908637,5.999999999958113,2.0955141184675647,1.4142135623779364,-3.502412722090273e-12,0.09622504486606576
22.02753441802253,5.9999999999572315,2.1196004876455596,1.4142135623780403,-3.542673951043477e-12,0.09622504486609404
22.277847309136423,5.99999999995634,2.143686856823562,1.4142135623781456,-3.5829348760981226e-12,0.09622504486612264
22.528160200250316,5.999999999955437,2.167773226001572,1.4142135623782517,-3.623195497254209e-12,0.09622504486615158
22.778473091364205,5.999999999954525,2.1918595951795887,1.4142135623783592,-3.663455814511736e-12,0.09622504486618083
23.028785982478098,5.999999999953603,2.215945964357613,1.414213562378468,-3.703715827870705e-12,0.0962250448662104
23.27909887359199,5.999999999952672,2.2400323335356447,1.4142135623785779,-3.743975537331114e-12,0.0962250448662403
23.529411764705884,5.999999999951729,2.264118702713684,1.414213562378689,-3.784234942892965e-12,0.09622504486627052
23.779724655819777,5.999999999950777,2.2882050718917304,1.414213562378801,-3.8244940445562564e-12,0.09622504486630107
24.03003754693367,5.999999999949814,2.312291441069784,1.4142135623789145,-3.86475284232099e-12,0.09622504486633193
24.28035043804756,5.999999999948842,2.3363778102478445,1.414213562379029,-3.905011336187163e-12,0.09622504486636313
24.530663329161452,5.9999999999478595,2.3604641794259127,1.4142135623791448,-3.9452695261547784e-12,0.09622504486639465
24.780976220275345,5.9999999999468665,2.3845505486039884,1.414213562379262,-3.9855274124777905e-12,0.09622504486642647
25.03128911138924,5.999999999945864,2.408636917782072,1.4142135623793801,-4.025785316116937e-12,0.09622504486645864
25.28160200250313,5.999999999944851,2.4327232869601643,1.4142135623794996,-4.0660435236546415e-12,0.09622504486649111
25.53191489361702,5.999999999943828,2.456809656138265,1.41421356237962,-4.106302035090905e-12,0.09622504486652392
25.782227784730914,5.999999999942795,2.4808960253163748,1.4142135623797418,-4.1465608504257275e-12,0.09622504486655706
26.032540675844807,5.999999999941752,2.504982394494493,1.4142135623798646,-4.186819969659109e-12,0.0962250448665905
26.2828535669587,5.999999999940699,2.5290687636726203,1.4142135623799887,-4.227079392791049e-12,0.09622504486662428
26.533166458072593,5.999999999939636,2.553155132850756,1.414213562380114,-4.267339119821549e-12,0.09622504486665838
26.783479349186486,5.999999999938563,2.5772415020289006,1.4142135623802405,-4.307599150750608e-12,0.09622504486669281
27.033792240300375,5.999999999937479,2.6013278712070536,1.4142135623803682,-4.347859485578224e-12,0.09622504486672756
27.284105131414268,5.999999999936386,2.6254142403852154,1.414213562380497,-4.3881201243044e-12,0.09622504486676263
27.53441802252816,5.999999999935283,2.649500609563386,1.4142135623806271,-4.428381066929135e-12,0.09622504486679802
27.784730913642054,5.999999999934169,2.673586978741566,1.4142135623807583,-4.468642313452429e-12,0.09622504486683374
28.035043804755947,5.999999999933046,2.697673347919754,1.4142135623808907,-4.508903863874282e-12,0.09622504486686978
28.28535669586984,5.999999999931912,2.7217597170979504,1.4142135623810244,-4.549165718194694e-12,0.09622504486690614
28.53566958698373,5.999999999930768,2.745846086276156,1.4142135623811591,-4.589427876413664e-12,0.09622504486694282
28.785982478097623,5.9999999999296145,2.7699324554543696,1.414213562381295,-4.629690338531194e-12,0.09622504486697983
29.036295369211516,5.99999999992845,2.7940188246325928,1.4142135623814323,-4.669953104547283e-12,0.09622504486701716
29.28660826032541,5.999999999927277,2.818105193810825,1.4142135623815706,-4.710216016576683e-12,0.09622504486705483
29.5369211514393,5.999999999926093,2.842191562989067,1.4142135623817103,-4.750478830090419e-12,0.09622504486709281
29.787234042553195,5.999999999924898,2.8662779321673195,1.414213562381851,-4.7907415423046365e-12,0.09622504486713111
30.037546933667084,5.999999999923694,2.8903643013455813,1.414213562381993,-4.8310041532193335e-12,0.09622504486716973
30.287859824780977,5.99999999992248,2.9144506705238538,1.414213562382136,-4.871266662834511e-12,0.09622504486720869
30.53817271589487,5.999999999921256,2.9385370397021364,1.4142135623822802,-4.911529071150169e-12,0.09622504486724796
30.788485607008763,5.999999999920021,2.962623408880429,1.4142135623824257,-4.951791378166308e-12,0.09622504486728756
31.038798498122656,5.999999999918776,2.9867097780587315,1.4142135623825725,-4.992053583882927e-12,0.09622504486732747
31.28911138923655,5.999999999917522,3.0107961472370444,1.4142135623827203,-5.032315688300026e-12,0.09622504486736772
31.53942428035044,5.999999999916257,3.034882516415367,1.4142135623828693,-5.072577691417605e-12,0.09622504486740828
31.78973717146433,5.999999999914983,3.0589688855937,1.4142135623830197,-5.112839593235666e-12,0.09622504486744916
32.040050062578224,5.9999999999136975,3.083055254772043,1.414213562383171,-5.153101393754206e-12,0.09622504486749038
32.29036295369212,5.9999999999124025,3.107141623950396,1.4142135623833236,-5.1933630929732265e-12,0.09622504486753192
32.54067584480601,5.999999999911098,3.1312279931287597,1.4142135623834773,-5.233624690892728e-12,0.09622504486757377
32.7909887359199,5.999999999909782,3.155314362307133,1.4142135623836323,-5.2738861875127095e-12,0.09622504486761596
33.041301627033796,5.999999999908457,3.1794007314855164,1.4142135623837886,-5.314147582833171e-12,0.09622504486765845
33.29161451814769,5.999999999907122,3.2034871006639096,1.4142135623839458,-5.354408876854113e-12,0.09622504486770128
33.541927409261575,5.999999999905777,3.227573469842313,1.4142135623841046,-5.394670179516721e-12,0.09622504486774444
33.79224030037547,5.999999999904421,3.2516598390207285,1.4142135623842642,-5.434931772027052e-12,0.0962250448677879
34.04255319148936,5.999999999903056,3.275746208199155,1.4142135623844252,-5.4751936684359425e-12,0.0962250448678317
34.292866082603254,5.99999999990168,3.2998325773775936,1.4142135623845873,-5.515455868743391e-12,0.09622504486787584
34.54317897371715,5.999999999900295,3.3239189465560433,1.4142135623847507,-5.555718372949399e-12,0.09622504486792027
34.79349186483104,5.9999999998988995,3.348005315734505,1.414213562384915,-5.5959811810539665e-12,0.09622504486796504
35.04380475594493,5.9999999998974936,3.3720916849129776,1.414213562385081,-5.636244293057092e-12,0.09622504486801013
35.294117647058826,5.999999999896078,3.396178054091462,1.4142135623852476,-5.676507708958777e-12,0.09622504486805554
35.54443053817272,5.999999999894651,3.4202644232699573,1.4142135623854157,-5.716771428759021e-12,0.09622504486810128
35.79474342928661,5.999999999893215,3.4443507924484646,1.414213562385585,-5.7570354524578235e-12,0.09622504486814734
36.045056320400505,5.999999999891769,3.4684371616269836,1.4142135623857555,-5.797299780055185e-12,0.09622504486819372
36.2953692115144,5.9999999998903135,3.4925235308055136,1.4142135623859269,-5.837564411551106e-12,0.09622504486824043
36.545682102628284,5.999999999888847,3.5166098999840547,1.4142135623860999,-5.877829346945584e-12,0.09622504486828747
36.79599499374218,5.999999999887371,3.540696269162608,1.4142135623862737,-5.918094586238622e-12,0.09622504486833482
37.04630788485607,5.999999999885884,3.564782638341172,1.414213562386449,-5.95836012943022e-12,0.0962250448683825
37.29662077596996,5.999999999884388,3.5888690075197482,1.4142135623866252,-5.998625976520376e-12,0.09622504486843049
37.546933667083856,5.999999999882881,3.612955376698336,1.4142135623868028,-6.038892127509091e-12,0.09622504486847881
37.79724655819775,5.999999999881364,3.637041745876935,1.4142135623869816,-6.079158441097254e-12,0.09622504486852747
38.04755944931164,5.9999999998798375,3.6611281150555466,1.4142135623871614,-6.119424316128314e-12,0.09622504486857643
38.297872340425535,5.999999999878301,3.6852144842341716,1.4142135623873426,-6.159689684661774e-12,0.09622504486862572
38.54818523153943,5.999999999876754,3.7093008534128096,1.414213562387525,-6.199954546697636e-12,0.09622504486867534
38.79849812265332,5.999999999875197,3.73338722259146,1.4142135623877083,-6.2402189022359e-12,0.09622504486872528
39.048811013767214,5.99999999987363,3.7574735917701236,1.414213562387893,-6.2804827512765666e-12,0.09622504486877555
39.29912390488111,5.999999999872053,3.7815599609487998,1.414213562388079,-6.320746093819634e-12,0.09622504486882613
39.54943679599499,5.999999999870465,3.8056463301274883,1.414213562388266,-6.361008929865103e-12,0.09622504486887704
39.799749687108886,5.9999999998688684,3.82973269930619,1.4142135623884542,-6.401271259412974e-12,0.09622504486892827
40.05006257822278,5.999999999867261,3.8538190684849054,1.4142135623886436,-6.441533082463247e-12,0.09622504486897983
40.30037546933667,5.9999999998656435,3.877905437663633,1.4142135623888343,-6.481794399015922e-12,0.0962250448690317
40.550688360450565,5.999999999864016,3.9019918068423736,1.4142135623890262,-6.5220552090709985e-12,0.09622504486908391
40.80100125156446,5.9999999998623785,3.926078176021127,1.4142135623892191,-6.562315512628478e-12,0.09622504486913644
41.05131414267835,5.999999999860731,3.9501645451998937,1.4142135623894132,-6.6025753096883574e-12,0.09622504486918929
41.30162703379224,5.999999999859073,3.974250914378673,1.4142135623896086,-6.6428346002506395e-12,0.09622504486924245
41.55193992490614,5.999999999857406,3.998337283557465,1.4142135623898051,-6.683093384315324e-12,0.09622504486929595
41.80225281602003,5.999999999855728,4.02242365273627,1.414213562390003,-6.72335166188241e-12,0.09622504486934977
42.05256570713392,5.999999999854039,4.046510021915087,1.414213562390202,-6.763609492967423e-12,0.09622504486940392
42.30287859824781,5.999999999852341,4.070596391093919,1.414213562390402,-6.80386733153883e-12,0.09622504486945838
42.5531914893617,5.999999999850633,4.094682760272765,1.4142135623906034,-6.844125271409758e-12,0.09622504486951317
